#VERSION:0.81;
#TITLE:Ultramania;
#SUBTITLE:;
#ARTIST:Seo Taiji;
#TITLETRANSLIT:;
#SUBTITLETRANSLIT:;
#ARTISTTRANSLIT:;
#GENRE:;
#ORIGIN:;
#CREDIT:Andamiro;
#BANNER:514.png;
#BACKGROUND:514.png;
#PREVIEWVID:514_P.mpg;
#CDTITLE:;
#MUSIC:514.mp3;
#OFFSET:-0.760000;
#SAMPLESTART:61.689583;
#SAMPLELENGTH:12.000000;
#SELECTABLE:YES;
#SONGTYPE:ARCADE;
#SONGCATEGORY:K-POP;
#VOLUME:108;
#BPMS:0.000=83.000;
#TIMESIGNATURES:0.000=4=4;
#TICKCOUNTS:0.000=2;
#COMBOS:0.000=1;
#SPEEDS:0.000=1.000=0.000=0;
#SCROLLS:0.000=1.000;
#LABELS:0.000=Song Start;
#LASTSECONDHINT:90.358971;
#BGCHANGES:-1.700=514.mpg=1.000=0=0=0=StretchNoLoop====,
99999=-nosongbg-=1.000=0=0=0 // don't automatically add -songbackground-
;


//---------------pump-single - s2----------------
#NOTEDATA:;
#STEPSTYPE:pump-single;
#DESCRIPTION:s2;
#DIFFICULTY:Edit;
#METER:2;
#RADARVALUES:0.124391,0.129495,0.000000,0.000000,0.000000,78.000000,0.000000,0.000000,0.000000,0.000000,0.000000,0.000000,0.000000,0.124391,0.129495,0.000000,0.000000,0.000000,78.000000,0.000000,0.000000,0.000000,0.000000,0.000000,0.000000,0.000000;
#OFFSET:-0.760000;
#BPMS:0.000000=83.000000
;
#STOPS:;
#DELAYS:;
#WARPS:;
#TIMESIGNATURES:0.000000=4=4
;
#TICKCOUNTS:0.000000=2
;
#COMBOS:0.000000=1
;
#SPEEDS:0.000000=1.000000=0.000000=0
;
#SCROLLS:0.000000=1.000000
;
#FAKES:;
#LABELS:0.000000=Song Start
;
#NOTES:
00000
00000
00000
00000
,
00000
00000
00000
00100
,
00000
00000
00000
00100
,
00000
00100
00000
00000
,
10000
10000
00001
00001
,
10000
10000
00001
00100
,
00001
00001
10000
00100
,
00000
00100
00000
00000
,
10000
00000
00001
00000
,
10000
10000
10000
00000
,
00001
00001
00001
00000
,
00010
00000
01000
00000
,
00010
00001
01000
10000
,
00001
00000
01000
01000
,
00001
00000
10000
00100
,
10000
00000
00010
00010
,
10000
00001
00100
00000
,
00000
01000
00000
01000
,
00000
01000
01000
01000
,
01000
00010
00000
00010
,
00000
00010
00010
00010
,
00010
10000
00000
00010
,
00010
10000
00000
00001
,
00100
00001
00000
01000
,
01000
00001
10000
00100
,
00000
01000
00000
01000
,
01000
00001
00000
00001
,
00001
00010
00000
00010
,
00010
10000
00000
10000
,
10000
00000
00000
00000
;

//---------------pump-single - s4----------------
#NOTEDATA:;
#STEPSTYPE:pump-single;
#DESCRIPTION:s4;
#DIFFICULTY:Edit;
#METER:4;
#RADARVALUES:0.212103,0.194242,0.178613,0.000000,0.000000,117.000000,16.000000,0.000000,0.000000,0.000000,0.000000,0.000000,0.000000,0.212103,0.194242,0.178613,0.000000,0.000000,117.000000,16.000000,0.000000,0.000000,0.000000,0.000000,0.000000,0.000000;
#OFFSET:-0.760000;
#BPMS:0.000000=83.000000
;
#STOPS:;
#DELAYS:;
#WARPS:;
#TIMESIGNATURES:0.000000=4=4
;
#TICKCOUNTS:0.000000=2
;
#COMBOS:0.000000=1
;
#SPEEDS:0.000000=1.000000=0.000000=0
;
#SCROLLS:0.000000=1.000000
;
#FAKES:;
#LABELS:0.000000=Song Start
;
#NOTES:
00000
00000
00000
00000
,
00000
00000
00000
01001
,
00000
00000
00000
01010
,
00000
01001
00000
00000
,
00010
00010
01000
01000
,
00010
00010
01000
01010
,
01000
01000
00010
01010
,
01000
01010
00010
00010
,
01000
00000
01000
00000
00000
00100
01000
00010
,
10000
00000
10000
00000
10000
00000
10000
00001
,
10000
10000
10000
00100
,
00010
00001
00010
00001
,
01000
00100
10000
10000
,
01001
01000
01000
01000
,
01010
00010
00010
00010
,
10010
10000
10000
10000
,
10001
00000
00100
00000
01000
00010
00000
00000
,
00000
00000
00010
00100
00010
10000
00100
00000
,
00100
00000
01000
00100
01000
00100
01000
00000
,
00001
01000
10000
01000
,
10000
00010
00100
00001
,
00001
00000
10010
00000
00010
00100
00010
00100
,
10000
10001
00001
00001
,
00001
00000
01001
00000
00001
00100
00001
00100
,
01000
00000
01010
00000
00100
00000
00010
01000
,
00000
00000
00100
00000
00100
00000
01000
00100
,
00001
00000
00100
00000
00100
00000
10000
00100
,
00010
00000
00100
00000
00100
00000
00001
00100
,
01100
00000
00100
00000
00100
00000
01000
00100
,
00101
00000
00000
00000
;

//---------------pump-single - s11----------------
#NOTEDATA:;
#STEPSTYPE:pump-single;
#DESCRIPTION:s11;
#DIFFICULTY:Edit;
#METER:11;
#RADARVALUES:0.411448,0.391833,0.267920,0.000000,0.379553,234.000000,24.000000,0.000000,0.000000,0.000000,0.000000,0.000000,0.000000,0.411448,0.391833,0.267920,0.000000,0.379553,234.000000,24.000000,0.000000,0.000000,0.000000,0.000000,0.000000,0.000000;
#OFFSET:-0.760000;
#BPMS:0.000000=83.000000
;
#STOPS:;
#DELAYS:;
#WARPS:;
#TIMESIGNATURES:0.000000=4=4
;
#TICKCOUNTS:0.000000=4
;
#COMBOS:0.000000=1
;
#SPEEDS:0.000000=1.000000=0.000000=0
;
#SCROLLS:0.000000=1.000000
;
#FAKES:;
#LABELS:0.000000=Song Start
;
#NOTES:
00000
00000
00000
00000
,
00000
00000
00000
00000
,
00010
00010
00000
00100
10000
00000
10000
00000
10000
00010
01000
00001
10001
00000
00000
00000
,
10000
01000
00010
00100
10001
00000
00000
00000
00010
00100
00000
10000
00100
00000
00001
00000
,
01000
00100
00000
10000
00001
00000
00001
00000
00010
00100
00000
00001
10000
00000
10000
00000
,
01000
00100
00000
10000
00100
00000
00100
00000
01010
00000
00010
00100
01000
00000
00000
00000
,
01000
00100
00000
00010
00100
00000
01000
00000
00001
00001
00000
10000
00010
00000
00000
00000
,
10000
10000
00000
00001
01000
00000
00000
00000
00010
00100
00000
00100
10000
00000
00001
00000
,
00100
00000
00000
00000
00100
00000
00000
00000
00100
10000
00001
00000
01000
00000
01000
00000
,
00010
00000
00000
00000
00010
00000
00000
00000
00010
00000
00100
01000
10000
01000
10000
00000
,
01000
00000
00000
00000
01000
00000
00000
00000
01000
00000
00100
00010
00001
00010
00001
00010
,
00001
00000
00001
00100
00010
00000
00010
00100
00010
00000
00001
00100
00010
00000
00010
00100
,
00010
00000
00000
00000
00010
00000
00000
00000
00010
00000
00000
00000
01000
00100
10000
00000
,
01010
00000
00100
00100
01010
00100
10001
00000
,
01000
00000
00000
00000
00100
00000
00000
00000
00010
00100
00001
00100
00010
00000
00000
00000
,
00010
00000
00000
00000
01000
10000
01000
00000
00100
00000
00000
00000
10001
00000
00000
00000
,
10001
00000
00000
00000
01000
01000
00010
00010
00100
00001
10000
00000
00000
00000
00000
00000
,
00000
00000
01000
10000
00001
00000
00010
00001
,
10000
00000
10001
00001
10001
10000
10001
00001
,
10001
10000
11000
00100
00011
00000
00011
00100
,
11000
00000
00000
00000
00100
00000
00000
00000
00100
00000
00000
00000
00100
00000
01000
00010
,
00000
01000
00000
00000
00100
00000
00000
00000
01000
01000
00010
00010
01010
00000
00100
00000
,
10001
00000
00000
00000
00100
00000
00000
00000
00010
00010
01000
01000
00010
01000
00010
01000
,
00010
01000
00010
01000
00100
00000
00000
00000
01000
01000
00010
00010
01010
00000
00100
00000
,
10001
00000
00000
00000
00100
00000
00000
00000
00100
00000
00100
00000
00010
01000
00001
00000
,
00000
00000
00000
00000
00001
00100
00001
00100
00010
00100
00010
01000
00100
00010
00100
01000
,
00100
00000
10001
00000
10000
00100
10000
00100
01000
00100
01000
00010
00100
01000
00100
00010
,
00100
10001
00010
10000
01000
00001
00100
00001
,
01000
00000
00000
00000
10000
01000
00100
00000
00001
00010
00100
00000
00100
00000
00100
00000
,
10010
00100
01001
00000
00100
00000
00000
00000
00000
00000
00000
00000
00000
00000
00000
00000
;

//---------------pump-single - Single12 UCS----------------
#NOTEDATA:;
#CHARTNAME:Single 12 UCS;
#STEPSTYPE:pump-single;
#DESCRIPTION:Single12 UCS;
#DIFFICULTY:Hard;
#METER:12;
#RADARVALUES:0.596441,0.552724,0.290247,0.245593,0.747943,325.000000,26.000000,22.000000,0.000000,1.000000,0.000000,0.000000,0.000000,0.596441,0.552724,0.290247,0.245593,0.747943,325.000000,26.000000,22.000000,0.000000,1.000000,0.000000,0.000000,0.000000;
#CREDIT:Extra bootleg;
#OFFSET:-0.760000;
#BPMS:0.000000=83.000000
;
#STOPS:;
#DELAYS:;
#WARPS:;
#TIMESIGNATURES:0.000000=4=4
;
#TICKCOUNTS:0.000000=8
;
#COMBOS:0.000000=1
;
#SPEEDS:0.000000=1.000000=0.000000=0
;
#SCROLLS:0.000000=1.000000
;
#FAKES:;
#LABELS:0.000000=Song Start
;
#NOTES:
00001
10000
00000
00010
01000
00000
00001
10000
00001
10000
00001
10000
00100
00000
00100
00000
,
01000
00010
00000
10000
00001
00000
01000
00010
01000
00010
01000
00010
00200
00000
00300
00000
,
00001
10000
00000
00010
01000
00000
00001
10000
00001
10000
00001
10000
00200
00000
00300
00000
,
01000
00000
00010
00000
01000
00000
00010
00000
00200
00000
00000
00000
00300
00000
00000
00000
00010
00000
01000
00000
00010
00000
01000
00000
00001
10000
00001
10000
00001
10000
00001
10000
,
00001
00000
10000
00000
00000
00000
00010
00000
01000
00000
00000
00000
00100
00000
00000
00000
10000
00000
00001
00000
01000
00010
01000
00010
01000
00000
00000
00000
01010
00000
00000
00000
,
00001
10000
00000
00010
01000
00000
00001
10000
00010
01000
00001
10000
00200
00000
00300
00000
,
01000
00010
00000
10000
00001
00000
01000
00010
10000
00001
01000
00010
00200
00000
00300
00000
,
00001
10000
00010
01000
00200
00000
00300
00000
10000
00001
01000
00010
00100
00000
00100
00000
,
00000
00000
00000
00000
00000
00000
00000
00000
00000
00000
00000
00000
00000
00000
00000
00000
00000
00000
00000
00000
00100
00000
00000
00000
00001
00000
10000
00100
10000
00000
00000
00000
,
00010
00000
10000
10000
00010
00000
10000
10000
00010
00000
01000
00100
01000
00001
00010
00001
,
10000
00000
00010
00010
10000
00000
00010
00010
10000
00000
00100
01000
00100
10000
00100
01000
,
00010
00000
00100
00001
10000
00001
00100
10000
00000
00000
01000
00010
01000
00001
00100
10000
,
00000
00000
00000
00000
01000
00100
10000
00000
00000
00000
00000
00000
00001
10000
00100
00001
,
00022
00000
00000
00033
00010
00100
00001
01000
00100
00000
10000
00000
10001
00000
10001
00000
,
00022
00000
00000
00033
00001
00010
00001
00100
00000
00010
01000
00000
10001
00000
10001
00000
,
00022
00000
00000
00033
00010
00100
00000
01000
00100
00000
10000
00000
10001
00000
10001
00000
,
00022
00000
00000
00033
00000
00001
00010
00100
01000
10000
00100
00000
00000
00000
00000
00000
,
00001
00000
10000
00000
00100
00000
00100
00000
01010
00010
00100
00000
00001
00000
00001
00000
,
10001
10000
00100
00000
01000
00000
01000
00000
01010
00010
00100
00000
00100
00000
00100
00010
,
00100
00001
00100
00010
01000
00000
00100
10000
00001
10000
00100
00001
00000
00000
00010
01000
,
00010
10000
00100
00001
00000
00000
00000
00000
00010
00100
00001
00000
00000
00000
00000
00000
,
10000
00001
00100
10000
22000
00000
00000
33000
01000
00100
10000
00010
00100
00000
00001
00000
,
10001
00000
10001
00000
22000
00000
00000
33000
10000
01000
10000
00100
00000
01000
00010
00000
,
10001
00000
10001
00000
22000
00000
00000
33000
01000
00100
00000
00010
00100
00000
00001
00000
,
10001
00000
10001
00000
22000
00000
00000
33000
00000
10000
01000
00100
00010
00001
00100
00000
,
10000
00000
00000
00000
10000
00000
00000
00000
00001
00000
00010
00000
00100
00000
00010
00000
00001
00000
01000
00000
10000
00000
00100
00000
10000
01000
00100
00000
10000
00000
01000
00000
,
00100
00000
00010
00000
00001
00000
00100
00000
00001
00000
00010
00000
00100
00000
00001
00000
00010
00000
00001
00000
00100
00000
00010
00000
10000
00100
01000
00000
10000
00000
00100
00000
,
10000
00000
01000
00000
00100
00000
10000
00000
01000
00000
00100
00000
00010
00000
00001
00000
00010
00100
00001
00000
00010
00000
00001
00000
00100
00000
00010
00000
00001
00000
00100
00000
,
10000
01000
10000
00100
01000
10000
00100
00001
00010
00001
00100
00010
00001
00100
10000
00100
,
10001
10101
00000
00000
00000
00000
00000
00000
;

//---------------pump-double - d4----------------
#NOTEDATA:;
#STEPSTYPE:pump-double;
#DESCRIPTION:d4;
#DIFFICULTY:Edit;
#METER:4;
#RADARVALUES:0.208914,0.227592,0.290247,0.000000,0.000000,105.000000,26.000000,0.000000,0.000000,0.000000,0.000000,0.000000,0.000000,0.208914,0.227592,0.290247,0.000000,0.000000,105.000000,26.000000,0.000000,0.000000,0.000000,0.000000,0.000000,0.000000;
#OFFSET:-0.760000;
#BPMS:0.000000=83.000000
;
#STOPS:;
#DELAYS:;
#WARPS:;
#TIMESIGNATURES:0.000000=4=4
;
#TICKCOUNTS:0.000000=2
;
#COMBOS:0.000000=1
;
#SPEEDS:0.000000=1.000000=0.000000=0
;
#SCROLLS:0.000000=1.000000
;
#FAKES:;
#LABELS:0.000000=Song Start
;
#NOTES:
0000000000
0000000000
0000000000
0000000000
,
0000000000
0000000000
0000000000
0100100000
,
0000000000
0000000000
0000000000
0000010010
,
0000000000
0000110000
0000000000
0000000000
,
0001000000
0001000000
0000001000
0000001000
,
0001000000
0001000000
0000001000
0001001000
,
0001000000
0001000000
0000001000
0001001000
,
0001000000
0001001000
0000001000
0000001000
,
0001000000
0000000000
0000000000
0000000000
0000000000
0000001000
0001000000
0000100000
,
1000000000
0000000000
1000000000
0000000000
1000000000
0000000000
1000000000
0000010000
,
0000100000
0000100000
0000100000
0000000000
,
0010100000
0000000000
0000010100
0000000000
,
0000000010
0000001000
0000000001
0000000001
,
0000001001
0000001000
0000001000
0000001000
,
0001001000
0001000000
0001000000
0001000000
,
1001000000
1000000000
1000000000
1000000000
,
1000100000
0000000000
0010000000
0000000000
0001000000
0000001000
0000000000
0000000000
,
0000000000
0000000000
0000001000
0000000000
0000000100
0000000000
0001000000
0000001000
,
0001000000
0000000000
0001000000
0000000000
0010000000
0000000000
0000001000
0001000000
,
0000001000
0000001100
0000000000
0011000000
,
0000000000
0100000000
0001000000
1000000000
,
1000000000
1001000000
0001000000
0001000000
,
0001000000
0001001000
0000001000
0000001000
,
0000001000
0000001001
0000000001
0000000001
,
0000000001
0000000000
0000010001
0000000000
0000000100
0000000000
0000001000
0001000000
,
0000000000
0000100000
0010000000
0010000000
,
1100000000
1100000000
1000000000
0000000000
0010000000
0000000000
0010000000
0000000000
,
0001100000
0001100000
0000010000
0000000000
0000000100
0000000000
0000000100
0000000000
,
0000000011
0000000011
0000000001
0000000000
0000000100
0000000000
0000000100
0000000000
,
0000011000
0001100000
0000000000
0000000000
0000000000
0000000000
0000000000
0000000000
;

//---------------pump-double - D15 UCS----------------
#NOTEDATA:;
#CHARTNAME:FBC Nightmare;
#STEPSTYPE:pump-double;
#DESCRIPTION:D15 UCS;
#DIFFICULTY:Edit;
#METER:15;
#RADARVALUES:0.615578,0.478523,0.580493,0.011163,0.820505,329.000000,52.000000,1.000000,0.000000,4.000000,0.000000,0.000000,0.000000,0.615578,0.478523,0.580493,0.011163,0.820505,329.000000,52.000000,1.000000,0.000000,4.000000,0.000000,0.000000,0.000000;
#CREDIT:Funbox Collection;
#OFFSET:-0.760000;
#BPMS:0.000000=83.000000
,99.125000=332.000000
,102.125000=83.000000
;
#STOPS:8.000000=0.361446
,12.250000=0.361445
,14.500000=0.361445
,24.750000=0.361446
,29.000000=0.361446
,31.250000=0.180723
,68.125000=1.445782
,102.125000=0.361450
;
#DELAYS:;
#WARPS:7.000000=0.750000
,11.250000=0.750000
,13.500000=0.750000
,23.750000=0.750000
,28.000000=0.750000
,30.250000=0.500000
;
#TIMESIGNATURES:0.000000=4=4
;
#TICKCOUNTS:0.000000=4
;
#COMBOS:0.000000=1
;
#SPEEDS:0.000000=1.000000=0.000000=0
;
#SCROLLS:0.000000=1.000000
;
#FAKES:;
#LABELS:0.000000=Song Start
;
#NOTES:
// measure 0
0200000000
0000000000
0000000000
0300000000
0100000000
0000100000
0010000000
0000100000
0010000000
0000100000
0001000000
0000100000
0001000000
0000100000
0000001000
0000010000
,  // measure 1
0000001000
0000000000
0000000000
0000000000
0000000000
0000000000
0000000000
0000000000
0000000000
0000000000
0000000000
0000000000
0000010000
0000000000
0000000000
0000000000
0000000000
0000000000
0000000000
0000000000
0000000000
0000000000
0000000000
0000000000
0000001000
0000000000
0000000000
0000000000
0000000000
0000000000
0000000000
0000000000
0000000000
0000000000
0000000000
0000000000
0000000100
0000000000
0000000000
0000000000
0000000000
0000000000
0000000000
0000000000
0000000000
0000000000
0000000000
0000000000
0000000010
0000000000
0000000000
0000000000
0000000000
0000000000
0000000000
0000000000
0000000000
0000000000
0000000000
0000000000
0000000001
0000000000
0000000000
0000000000
0000000000
0000000000
0000000000
0000000000
0000000000
0000000000
0000000000
0000000000
0000000010
0000000000
0000000000
0000000000
0000000000
0000000000
0000000000
0000000000
0000000000
0000000000
0000000000
0000000000
0000000100
0000000000
0000000000
0000000000
0000000000
0000000000
0000000000
0000000000
0000000000
0000000000
0000000000
0000000000
0000001000
0000000000
0000000000
0000000000
0000000000
0000000000
0000000000
0000000000
0000000000
0000000000
0000000000
0000000000
0000010000
0000000000
0000000000
0000000000
0000000000
0000000000
0000000000
0000000000
0000000000
0000000000
0000000000
0000000000
0000100000
0000000000
0000000000
0000000000
0000000000
0000000000
0000000000
0000000000
0000000000
0000000000
0000000000
0000000000
0001000000
0000000000
0000000000
0000000000
0000000000
0000000000
0000000000
0000000000
0000000000
0000000000
0000000000
0110000000
0000000000
0000000000
0000000000
0000000000
0000000000
0000000000
0000000000
0000000000
0000000000
0000000000
0000000000
0000000000
0000000000
0000000000
0000000000
0000000000
0000000000
0000000000
0000000000
0000000000
0000000000
0000000000
0000000000
0000000000
0000000000
0000000000
0000000000
0000000000
0000000000
0000000000
0000000000
0000000000
0000000000
0000000000
0000000000
0000000000
0000000000
0000000000
0000000000
0000000000
0000000000
0000000000
0000000000
0000000000
0000000000
0000000000
0000000000
0000000000
,  // measure 2
0000000000
0000000000
0000000000
0000000000
0000000000
0000000000
0000000000
0000000000
0000000000
0000000000
0000000000
0000000000
0001000000
0000000000
0000000000
0000000000
0000000000
0000000000
0000000000
0000000000
0000000000
0000000000
0000000000
0000000000
0001000000
0000000000
0000000000
0000000000
0000000000
0000000000
0000000000
0000000000
0000000000
0000000000
0000000000
0000000000
0000100000
0000000000
0000000000
0000000000
0000000000
0000000000
0000000000
0000000000
0000000000
0000000000
0000000000
0000000000
0010000000
0000000000
0000000000
0000000000
0000000000
0000000000
0000000000
0000000000
0000000000
0000000000
0000000000
0000000000
1000000000
0000000000
0000000000
0000000000
0000000000
0000000000
0000000000
0000000000
0000000000
0000000000
0000000000
0000000000
0100000000
0000000000
0000000000
0000000000
0000000000
0000000000
0000000000
0000000000
0000000000
0000000000
0000000000
0000000000
0010000000
0000000000
0000000000
0000000000
0000000000
0000000000
0000000000
0000000000
0000000000
0000000000
0000000000
0000000000
0001000000
0000000000
0000000000
0000000000
0000000000
0000000000
0000000000
0000000000
0000000000
0000000000
0000000000
0000000000
0000100000
0000000000
0000000000
0000000000
0000000000
0000000000
0000000000
0000000000
0000000000
0000000000
0000000000
0000000000
0001000000
0000000000
0000000000
0000000000
0000000000
0000000000
0000000000
0000000000
0000000000
0000000000
0000000000
0000000000
0000010000
0000000000
0000000000
0000000000
0000000000
0000000000
0000000000
0000000000
0000000000
0000000000
0000000000
0000000000
0000000100
0000000000
0000000000
0000000000
0000000000
0000000000
0000000000
0000000000
0000000000
0000000000
0000000000
0000010100
0000000000
0000000000
0000000000
0000000000
0000000000
0000000000
0000000000
0000000000
0000000000
0000000000
0000000000
0000000000
0000000000
0000000000
0000000000
0000000000
0000000000
0000000000
0000000000
0000000000
0000000000
0000000000
0000000000
0000000000
0000000000
0000000000
0000000000
0000000000
0000000000
0000000000
0000000000
0000000000
0000000000
0000000000
0000000000
0000000000
,  // measure 3
0000000000
0000000000
0000000000
0000000000
0000000000
0000000000
0000000000
0000000000
0000000000
0000000000
0000000000
0000000000
0000000000
0000000000
0000000000
0000000000
0000000000
0000000000
0000000000
0000000000
0000000000
0000000000
0000000000
0000000000
0000000001
0000000000
0000000000
0000000000
0000000000
0000000000
0000000000
0000000000
0000000000
0000000000
0000000000
0000000000
0000000010
0000000000
0000000000
0000000000
0000000000
0000000000
0000000000
0000000000
0000000000
0000000000
0000000000
0000000000
0000001000
0000000000
0000000000
0000000000
0000000000
0000000000
0000000000
0000000000
0000000000
0000000000
0000000000
0000000000
0000010000
0000000000
0000000000
0000000000
0000000000
0000000000
0000000000
0000000000
0000000000
0000000000
0000000000
0000110000
0000000000
0000000000
0000000000
0000000000
0000000000
0000000000
0000000000
0000000000
0000000000
0000000000
0000000000
0000000000
0000000000
0000000000
0000000000
0000000000
0000000000
0000000000
0000000000
0000000000
0000000000
0000000000
0000000000
0000000000
0000000000
0000000000
0000000000
0000000000
0000000000
0000000000
0000000000
0000000000
0000000000
0000000000
0000000000
0000000000
0000000000
0000000000
0000000000
0000000000
0000000000
0000000000
0000000000
0000000000
0000000000
0000000000
0000000000
0000000000
0000000000
0000000000
0000000000
0000000000
0000000000
0000000000
0000000000
0000000000
0000000000
0000000000
0000000000
0000000000
0001000000
0000000000
0000000000
0000000000
0000000000
0000000000
0000000000
0000000000
0000000000
0000000000
0000000000
0000000000
0010000000
0000000000
0000000000
0000000000
0000000000
0000000000
0000000000
0000000000
0000000000
0000000000
0000000000
0000000000
0100000000
0000000000
0000000000
0000000000
0000000000
0000000000
0000000000
0000000000
0000000000
0000000000
0000000000
0000000000
1000000000
0000000000
0000000000
0000000000
0000000000
0000000000
0000000000
0000000000
0000000000
0000000000
0000000000
0000000000
0010000000
0000000000
0000000000
0000000000
0000000000
0000000000
0000000000
0000000000
0000000000
0000000000
0000000000
0000000000
,  // measure 4
0000000000
0000100000
0000000000
0000010000
0000000100
0000000000
0000000001
0000000010
0000000000
0000000100
0000000000
0000010000
0000001000
0000000000
0000100000
0001000000
,  // measure 5
0000000000
0000000000
0000000000
0000000000
0000000000
0000000000
0000000000
0000000000
0000000000
0000000000
0000000000
0000000000
0100000000
0000000000
0000000000
0000000000
0000000000
0000000000
0000000000
0000000000
0000000000
0000000000
0000000000
0000000000
0000000000
0000000000
0000000000
0000000000
0000000000
0000000000
0000000000
0000000000
0000000000
0000000000
0000000000
0000000000
0010000000
0000000000
0000000000
0000000000
0000000000
0000000000
0000000000
0000000000
0000000000
0000000000
0000000000
0000000000
0010000000
0000000000
0000000000
0000000000
0000000000
0000000000
0000000000
0000000000
0000000000
0000000000
0000000000
0000000000
0000000000
0000000000
0000000000
0000000000
0000000000
0000000000
0000000000
0000000000
0000000000
0000000000
0000000000
0000000000
1000000000
0000000000
0000000000
0000000000
0000000000
0000000000
0000000000
0000000000
0000000000
0000000000
0000000000
0000000000
1000000000
0000000000
0000000000
0000000000
0000000000
0000000000
0000000000
0000000000
0000000000
0000000000
0000000000
0000000000
0000000000
0000000000
0000000000
0000000000
0000000000
0000000000
0000000000
0000000000
0000000000
0000000000
0000000000
0000000000
0010000000
0000000000
0000000000
0000000000
0000000000
0000000000
0000000000
0000000000
0000000000
0000000000
0000000000
0000000000
0000000000
0000000000
0000000000
0000000000
0000000000
0000000000
0000000000
0000000000
0000000000
0000000000
0000000000
0000000000
0101000000
0000000000
0000000000
0000000000
0000000000
0000000000
0000000000
0000000000
0000000000
0000000000
0000000000
0000000000
0000000000
0000000000
0000000000
0000000000
0000000000
0000000000
0000000000
0000000000
0000000000
0000000000
0000000000
0000000000
0010000000
0000000000
0000000000
0000000000
0000000000
0000000000
0000000000
0000000000
0000000000
0000000000
0000000000
0000000000
0000100000
0000000000
0000000000
0000000000
0000000000
0000000000
0000000000
0000000000
0000000000
0000000000
0000000000
0001011000
0000000000
0000000000
0000000000
0000000000
0000000000
0000000000
0000000000
0000000000
0000000000
0000000000
0000000000
0000000000
,  // measure 6
0000000000
0000000000
0000000000
0000000000
0000000000
0000000000
0000000000
0000000000
0000000000
0000000000
0000000000
0000000000
0000000000
0000000000
0000000000
0000000000
0000000000
0000000000
0000000000
0000000000
0000000000
0000000000
0000000000
0000000000
0000000000
0000000000
0000000000
0000000000
0000000000
0000000000
0000000000
0000000000
0000000000
0000000000
0000000000
0000000000
0000000000
0000000000
0000000000
0000000000
0000000000
0000000000
0000000000
0000000000
0000000000
0000000000
0000000000
0000000000
0100000000
0000000000
0000000000
0000000000
0000000000
0000000000
0000000000
0000000000
0000000000
0000000000
0000000000
0000000000
0010000000
0000000000
0000000000
0000000000
0000000000
0000000000
0000000000
0000000000
0000000000
0000000000
0000000000
0000000000
0001000000
0000000000
0000000000
0000000000
0000000000
0000000000
0000000000
0000000000
0000000000
0000000000
0000000000
0000000000
0000001000
0000000000
0000000000
0000000000
0000000000
0000000000
0000000000
0000000000
0000000000
0000000000
0000000000
0000000000
0000000100
0000000000
0000000000
0000000000
0000000000
0000000000
0000000000
0000000000
0000000000
0000000000
0000000000
0000000000
0000000010
0000000000
0000000000
0000000000
0000000000
0000000000
0000000000
0000000000
0000000000
0000000000
0000000000
0000000000
0000000001
0000000000
0000000000
0000000000
0000000000
0000000000
0000000000
0000000000
0000000000
0000000000
0000000000
0000000000
0000000100
0000000000
0000000000
0000000000
0000000000
0000000000
0000000000
0000000000
0000000000
0000000000
0000000000
0000000000
0000010000
0000000000
0000000000
0000000000
0000000000
0000000000
0000000000
0000000000
0000000000
0000000000
0000000000
0000000000
0001000000
0000000000
0000000000
0000000000
0000000000
0000000000
0000000000
0000000000
0000000000
0000000000
0000000000
0000000000
0010000000
0000000000
0000000000
0000000000
0000000000
0000000000
0000000000
0000000000
0000000000
0000000000
0000000000
0000000000
0000100000
0000000000
0000000000
0000000000
0000000000
0000000000
0000000000
0000000000
0000000000
0000000000
0000000000
0001011000
,  // measure 7
0000000000
0000000000
0000000000
0000000000
0000000000
0000000000
0000000000
0000000000
0000000000
0000000000
0000000000
0000000000
0000000000
0000000000
0000000000
0000000000
0000000000
0000000000
0000000000
0000000000
0000000000
0000000000
0000000000
0000000000
0000000000
0000000000
0000000000
0000000000
0000000000
0000000000
0000000000
0000000000
0000000000
0000000000
0000000000
0000000000
0000000000
0000000000
0000000000
0000000000
0000000000
0000000000
0000000000
0000000000
0000000000
0000000000
0000000000
0000000000
0000000000
0000000000
0000000000
0000000000
0000000000
0000000000
0000000000
0000000000
0000000000
0000000000
0000000000
0000000000
1000000000
0000000000
0000000000
0000000000
0000000000
0000000000
0000000000
0000000000
0000000000
0000000000
0000000000
0000000000
0010000000
0000000000
0000000000
0000000000
0000000000
0000000000
0000000000
0000000000
0000000000
0000000000
0000000000
0000000000
0000100000
0000000000
0000000000
0000000000
0000000000
0000000000
0000000000
0000000000
0000000000
0000000000
0000000000
0000000000
0000010000
0000000000
0000000000
0000000000
0000000000
0000000000
0000000000
0000000000
0000000000
0000000000
0000000000
0001101000
0000000000
0000000000
0000000000
0000000000
0000000000
0000000000
0000000000
0000000000
0000000000
0000000000
0000000000
0000000000
0000000000
0000000000
0000000000
0000000000
0000000000
0000000000
0000000000
0000000000
0000000000
0000000000
0000000000
0000000000
0000000000
0000000000
0000000000
0000000000
0000000000
0000000000
0000000000
0000000000
0000000000
0000000000
0000000000
0000000000
0000000000
0000000000
0000000000
0000000000
0000000000
0000000000
0000000000
0000000000
0000000000
0000000000
0000000000
0000000000
0000000000
0000000000
0000000000
0000000000
0000000000
0000000000
0000000000
0000000000
0000000000
0000000000
0000000000
0000000000
0000100000
0000000000
0000000000
0000000000
0000000000
0000000000
0000000000
0000000000
0000000000
0000000000
0000000000
0000000000
0010000000
0000000000
0000000000
0000000000
0000000000
0000000000
0000000000
0000000000
0000000000
0000000000
0000000000
0000000000
,  // measure 8
0001000000
0000100000
0000010000
0000001000
0000000100
0000000000
0010000000
0010000000
0010000000
0010000000
0010000000
0010000000
0010000000
0010000000
0010000000
0000100000
,  // measure 9
1000000000
0010000000
0100000000
0010000000
0100000000
0010000000
0001001000
0000000000
0000100000
0000000000
0001001000
0000000000
0000010000
0000000000
0001001000
0000000000
,  // measure 10
0010000000
0000001000
0010000000
0000010000
0010000000
0000010000
0000110000
0000000000
0000001000
0000000000
0000110000
0000000000
0001000000
0000000000
0000110000
0000000000
,  // measure 11
0000000100
0001000000
0000000100
0000100000
0000000100
0001000000
0000000100
0000000000
0000010000
0000000100
0000000001
0000001000
0000010000
0001000000
0000100000
0010000000
,  // measure 12
1000000000
0010000000
0001000000
0000001000
0000000100
0000000001
0001001000
0000000000
0000000000
0010000000
0011000000
0000000000
0000000000
0000000100
0000001100
0000000000
,  // measure 13
0000000000
0000000000
0100000000
0010000000
0000100000
0000010000
0001001000
0000000000
0000000000
0000000000
0000000100
0000000100
0000000100
0000000100
0000001010
0000000000
,  // measure 14
0000110000
0000000000
0101000000
0010000000
0000100000
0000010000
0001001000
0000000000
0000000000
0000000000
0000000100
0000000100
0000000100
0000000100
0000001000
0000010000
,  // measure 15
0000100000
0001000000
0010000000
0000010000
0000000100
0000000010
0000001001
0000000000
0000000000
0000000000
0100000000
0010000000
0001000000
0000010000
0000000100
0000000000
,  // measure 16
0000000101
0000000000
0000010001
0000000000
0000110000
0000000000
1010100000
0000000000
0000000000
0000000000
0100000000
0100000000
0000000010
0000000010
1000000000
1000000000
,  // measure 17
0000010100
0000000000
0101000000
0000000000
0000110000
0000000000
0000001010
0000000000
0000000000
0000000010
0000000001
0000000100
0000010000
0000000000
1100000000
0000000000
,  // measure 18
0000000000
1000100000
0000001000
0000010001
0001000000
1000100000
0000001000
0000010001
,  // measure 19
0001000000
1100000000
0010000000
0001100000
0000000000
0000011000
0000000100
0000000011
,  // measure 20
0000000000
0000000000
0010000000
0000000000
0000000000
0000000000
0000000100
0000000000
0000001000
0000000000
0010000000
0000000000
0000001000
0001000000
0000000000
0001001000
,  // measure 21
0000010000
0000100000
0010000100
0000000000
0000000000
0000000000
0100000000
0100000000
0000000010
0000000010
1000000000
0000000000
0000000001
0000000000
0000001000
0001000000
,  // measure 22
0000010000
0000100000
0010000100
0000000000
0000000000
0000000000
0100000000
0100000000
0001000000
0001000000
0000100000
0000100000
0000010000
0000010000
0000001000
0000001000
,  // measure 23
0000000100
0000000100
0000000011
0000000000
0000000000
0000000000
1000000000
1000000000
0000000001
0000000001
1000000100
0000000000
0010000000
0000000000
0000110000
0010000000
,  // measure 24
0000000100
0010000000
0010000100
0000000000
0000000000
0000000000
1000000000
0010000000
0000100000
0000001000
0000000100
0000000010
0000000001
0000000000
0000000000
0000000000
,  // measure 25
0000000000
0000000000
0000000000
0000000000
0000000000
0000000000
0000000000
0000000000
0000000000
0000100000
0010000000
0000100000
0100000000
0010000000
0100000000
0001000000
,  // measure 26
0100000000
0010000000
0001000000
0000100000
0010000000
0000100000
0001000000
0000001000
0000010000
0000000100
0000000001
0000000010
0000001000
0000000100
0000010000
0000000001
,  // measure 27
0000000100
0000000010
0000001000
0000000100
0000010000
0000000100
0000000000
0000010001
0000000000
0000001000
0000000000
0001000000
0000000000
0000010000
0000100000
0000010000
,  // measure 28
0000100000
0000000100
0000000000
0010000000
0000001000
0001001000
0000000000
0001010000
0000000000
1000000000
0100000000
0010000000
0001000000
0000100000
0000010000
0000001000
,  // measure 29
0000000100
0000000010
0000000001
0000000100
0000000010
0000001001
0000000100
0000010010
0000000001
0000001100
0000000000
0000000000
0000000000
0000000000
0000000000
0000000000
;
